ChassisSim Rig Replay Log
R LS Bump 15K N/m/s, bypass 35mm, R LS Rebound 8K N/m/s
Heave
Time (s)	heave inp (mm)	heave (mm)	pitch (deg)	roll (deg)	Damp FL (mm)	Damp FR (mm)	Damp RL (mm)	Damp RR (mm)	Hub disp FL (mm)	Hub disp FR (mm)	Hub disp RL (mm)	Hub disp RR (mm)	Delta TL FL (kg)	Delta TL FR (kg)	Delta TL RL (kg)	Delta TL RR (kg)
0.021446	-1.960714	-0.105170	-0.004124	0.000000	0.806492	0.806492	0.392825	0.392825	-0.911599	-0.911599	-0.637059	-0.637059	33.205695	33.205695	50.773900	50.773900
0.042891	-4.062045	-0.859549	-0.022733	0.000000	2.065146	2.065146	1.051894	1.051894	-2.575887	-2.575887	-2.516031	-2.516031	46.776669	46.776669	59.574734	59.574734
0.064337	-6.080003	-2.518181	-0.041883	0.000000	2.763459	2.763459	1.346994	1.346994	-4.506881	-4.506881	-4.903800	-4.903800	49.685793	49.685793	45.579324	45.579324
0.085783	-7.965856	-5.008125	-0.035280	-0.000000	2.593065	2.593065	1.258330	1.258330	-6.966444	-6.966444	-7.151282	-7.151282	31.919452	31.919452	31.758397	31.758397
0.107229	-9.668666	-8.073677	-0.011643	0.000000	1.526715	1.526715	0.893865	0.893865	-9.453013	-9.453013	-9.308063	-9.308063	7.484093	7.484093	14.555718	14.555718
0.128674	-11.136859	-11.352565	0.006499	0.000000	0.145772	0.145772	0.285003	0.285003	-11.666697	-11.666697	-11.522804	-11.522804	-15.838480	-15.838480	-13.798850	-13.798850
0.150120	-12.320114	-14.417354	0.016051	0.000000	-1.197680	-1.197680	-0.513903	-0.513903	-13.487787	-13.487787	-13.496367	-13.496367	-35.817505	-35.817505	-43.971942	-43.971942
0.171566	-13.171532	-16.853260	0.025994	0.000000	-2.376222	-2.376222	-1.273453	-1.273453	-14.874369	-14.874369	-14.879409	-14.879409	-52.632786	-52.632786	-64.422855	-64.422855
0.193011	-13.650051	-18.346638	0.037252	0.000000	-3.267158	-3.267158	-1.790691	-1.790691	-15.674059	-15.674059	-15.562770	-15.562770	-62.846137	-62.846137	-72.467396	-72.467396
0.214457	-13.722993	-18.736751	0.042657	0.000000	-3.685374	-3.685374	-2.012543	-2.012543	-15.745938	-15.745938	-15.595073	-15.595073	-63.055687	-63.055687	-71.171032	-71.171032
0.235903	-13.368675	-18.024846	0.038997	0.000000	-3.564971	-3.564971	-1.986953	-1.986953	-15.078617	-15.078617	-14.991567	-14.991567	-53.544902	-53.544902	-61.971866	-61.971866
0.257349	-12.578912	-16.359977	0.029913	0.000000	-3.016511	-3.016511	-1.780362	-1.780362	-13.791980	-13.791980	-13.751018	-13.751018	-38.245773	-38.245773	-45.085940	-45.085940
0.278794	-11.361270	-13.994398	0.019276	0.000000	-2.205797	-2.205797	-1.414990	-1.414990	-12.053323	-12.053323	-12.018464	-12.018464	-22.160449	-22.160449	-25.699799	-25.699799
0.300240	-9.740880	-11.211773	0.008524	0.000000	-1.331171	-1.331171	-0.973514	-0.973514	-9.963603	-9.963603	-9.954712	-9.954712	-7.647963	-7.647963	-8.974131	-8.974131
0.321686	-7.761622	-8.262937	-0.000557	0.000000	-0.554238	-0.554238	-0.551551	-0.551551	-7.640746	-7.640746	-7.666642	-7.666642	2.989231	2.989231	2.674296	2.674296
0.343132	-5.486479	-5.327058	-0.005910	0.000000	0.004908	0.004908	-0.214592	-0.214592	-5.184474	-5.184474	-5.217502	-5.217502	8.595017	8.595017	9.228098	9.228098
0.364577	-2.996883	-2.500557	-0.007331	0.000000	0.304439	0.304439	0.009951	0.009951	-2.651094	-2.651094	-2.669299	-2.669299	9.939014	9.939014	11.427003	11.427003
0.386023	-0.390901	0.190713	-0.006347	-0.000000	0.388872	0.388872	0.124945	0.124945	-0.077154	-0.077154	-0.083807	-0.083807	8.935456	8.935456	10.645271	10.645271
0.407469	2.219842	2.763475	-0.004537	-0.000000	0.349453	0.349453	0.160362	0.160362	2.493327	2.493327	2.488641	2.488641	7.692781	7.692781	9.206113	9.206113
0.428914	4.714532	5.241302	-0.003052	-0.000000	0.303202	0.303202	0.166516	0.166516	4.983471	4.983471	4.991146	4.991146	7.590627	7.590627	9.545105	9.545105
0.450360	6.968777	7.621899	-0.003256	0.000000	0.348087	0.348087	0.196874	0.196874	7.318030	7.318030	7.333198	7.333198	10.152001	10.152001	12.961634	12.961634
0.471806	8.861288	9.853794	-0.006030	0.000000	0.547889	0.547889	0.290008	0.290008	9.397801	9.397801	9.401955	9.401955	16.083835	16.083835	19.781326	19.781326
0.493252	10.281362	11.828177	-0.011029	0.000000	0.922883	0.922883	0.464648	0.464648	11.083249	11.083249	11.075386	11.075386	24.491315	24.491315	29.578074	29.578074
0.514697	11.136762	13.388809	-0.017417	0.000000	1.434089	1.434089	0.715306	0.715306	12.240303	12.240303	12.221370	12.221370	34.069487	34.069487	40.840333	40.840333
0.536143	11.361487	14.355702	-0.024228	0.000000	2.005483	2.005483	1.011103	1.011103	12.748748	12.748748	12.714989	12.714989	43.124837	43.124837	51.323158	51.323158
0.557589	10.922831	14.557541	-0.030183	0.000000	2.536959	2.536959	1.303437	1.303437	12.515546	12.515546	12.466172	12.466172	49.768161	49.768161	58.831334	58.831334
0.579034	9.827054	13.865792	-0.033893	0.000000	2.922076	2.922076	1.538298	1.538298	11.494371	11.494371	11.435841	11.435841	52.344606	52.344606	61.622234	61.622234
0.600480	8.122998	12.223568	-0.034356	0.000000	3.070787	3.070787	1.666482	1.666482	9.702108	9.702108	9.642913	9.642913	49.837742	49.837742	58.536018	58.536018
0.621926	5.903015	9.663089	-0.031061	0.000000	2.908856	2.908856	1.641409	1.641409	7.240119	7.240119	7.182384	7.182384	42.497637	42.497637	49.633786	49.633786
0.643372	3.300671	6.305266	-0.024386	-0.000000	2.427863	2.427863	1.415386	1.415386	4.247168	4.247168	4.219408	4.219408	30.487384	30.487384	36.119674	36.119674
0.664817	0.484921	2.354817	-0.015605	-0.000000	1.667733	1.667733	1.016478	1.016478	0.916690	0.916690	0.900317	0.900317	14.539064	14.539064	17.111268	17.111268
0.686263	-2.349329	-1.906261	-0.005364	-0.000000	0.685260	0.685260	0.468526	0.468526	-2.516003	-2.516003	-2.533312	-2.533312	-4.091416	-4.091416	-5.649682	-5.649682
0.707709	-4.993997	-6.139800	0.006482	0.000000	-0.445550	-0.445550	-0.174676	-0.174676	-5.798940	-5.798940	-5.800297	-5.800297	-24.046992	-24.046992	-29.391523	-29.391523
0.729154	-7.243320	-9.984501	0.019103	0.000000	-1.625241	-1.625241	-0.844989	-0.844989	-8.660153	-8.660153	-8.632699	-8.632699	-43.269135	-43.269135	-51.743437	-51.743437
0.750600	-8.911065	-13.092335	0.030680	-0.000000	-2.730102	-2.730102	-1.477517	-1.477517	-10.842085	-10.842085	-10.793074	-10.793074	-59.526921	-59.526921	-70.748886	-70.748886
0.772046	-9.848080	-15.163673	0.039682	-0.000000	-3.639407	-3.639407	-2.011863	-2.011863	-12.139355	-12.139355	-12.081346	-12.081346	-71.049185	-71.049185	-84.456950	-84.456950
0.793492	-9.958574	-15.978569	0.045366	0.000000	-4.257236	-4.257236	-2.391286	-2.391286	-12.418965	-12.418965	-12.356315	-12.356315	-76.653024	-76.653024	-91.115199	-91.115199
0.814937	-9.213329	-15.421574	0.047313	0.000000	-4.516389	-4.516389	-2.569816	-2.569816	-11.629008	-11.629008	-11.562255	-11.562255	-75.605006	-75.605006	-89.680290	-89.680290
0.836383	-7.658059	-13.498968	0.045129	-0.000000	-4.393001	-4.393001	-2.536778	-2.536778	-9.791257	-9.791257	-9.724987	-9.724987	-67.140928	-67.140928	-79.373808	-79.373808
0.857829	-5.415392	-10.351778	0.038356	-0.000000	-3.883322	-3.883322	-2.315652	-2.315652	-7.039509	-7.039509	-6.969519	-6.969519	-51.551979	-51.551979	-60.216534	-60.216534
0.879274	-2.679334	-6.248001	0.026838	-0.000000	-2.995793	-2.995793	-1.897107	-1.897107	-3.627395	-3.627395	-3.577238	-3.577238	-30.678904	-30.678904	-35.498298	-35.498298
0.900720	0.298217	-1.550699	0.011592	-0.000000	-1.787656	-1.787656	-1.310864	-1.310864	0.119409	0.119409	0.143658	0.143658	-6.787272	-6.787272	-7.346940	-7.346940
0.922166	3.228536	3.317554	-0.005588	0.000000	-0.372942	-0.372942	-0.599472	-0.599472	3.859511	3.859511	3.856013	3.856013	18.470182	18.470182	22.410418	22.410418
0.943612	5.813377	7.905092	-0.022769	0.000000	1.117710	1.117710	0.187461	0.187461	7.235952	7.235952	7.204349	7.204349	43.282954	43.282954	51.602639	51.602639
0.965057	7.776224	11.763823	-0.038049	0.000000	2.554419	2.554419	0.991169	0.991169	9.895841	9.895841	9.846334	9.846334	65.257413	65.257413	77.720995	77.720995
0.986503	8.894360	14.489105	-0.050046	-0.000000	3.802319	3.802319	1.742441	1.742441	11.548528	11.548528	11.483630	11.483630	82.256321	82.256321	97.869484	97.869484
1.007949	9.028006	15.762470	-0.057738	-0.000000	4.748007	4.748007	2.364416	2.364416	11.974547	11.974547	11.904882	11.904882	91.776690	91.776690	109.290469	109.290469
1.029395	8.142616	15.394955	-0.060652	-0.000000	5.286723	5.286723	2.780212	2.780212	11.089528	11.089528	11.016485	11.016485	92.203353	92.203353	109.689569	109.689569
1.050840	6.320645	13.359592	-0.058130	-0.000000	5.310215	5.310215	2.925941	2.925941	8.969459	8.969459	8.876196	8.876196	83.294237	83.294237	98.063216	98.063216
1.072286	3.759988	9.799516	-0.048951	-0.000000	4.719002	4.719002	2.707169	2.707169	5.835400	5.835400	5.758622	5.758622	65.739078	65.739078	77.240899	77.240899
1.093732	0.757633	5.019332	-0.034229	0.000000	3.556098	3.556098	2.122211	2.122211	1.972130	1.972130	1.944463	1.944463	39.112289	39.112289	46.645454	46.645454
1.115177	-2.321097	-0.519230	-0.016402	-0.000000	1.890002	1.890002	1.214904	1.214904	-2.172116	-2.172116	-2.204454	-2.204454	5.968552	5.968552	6.057567	6.057567
1.136623	-5.085275	-6.217040	0.003963	-0.000000	-0.149722	-0.149722	0.018015	0.018015	-6.128027	-6.128027	-6.137736	-6.137736	-31.260731	-31.260731	-38.513123	-38.513123
1.158069	-7.168579	-11.396106	0.025984	-0.000000	-2.378722	-2.378722	-1.298984	-1.298984	-9.400430	-9.400430	-9.386507	-9.386507	-68.564134	-68.564134	-83.101081	-83.101081
1.179515	-8.280726	-15.372327	0.047967	-0.000000	-4.543394	-4.543394	-2.545280	-2.545280	-11.543720	-11.543720	-11.513768	-11.513768	-101.078205	-101.078205	-122.155000	-122.155000
1.200960	-8.252855	-17.542233	0.067946	-0.000000	-6.348776	-6.348776	-3.552207	-3.552207	-12.231569	-12.231569	-12.144632	-12.144632	-123.861618	-123.861618	-147.807768	-147.807768
1.222406	-7.069454	-17.489838	0.080934	0.000000	-7.474614	-7.474614	-4.193899	-4.193899	-11.274682	-11.274682	-11.109246	-11.109246	-131.450135	-131.450135	-154.062578	-154.062578
1.243852	-4.880499	-15.075477	0.081503	0.000000	-7.640176	-7.640176	-4.326527	-4.326527	-8.703054	-8.703054	-8.541541	-8.541541	-120.037570	-120.037570	-140.258505	-140.258505
1.265297	-1.989723	-10.497780	0.068550	0.000000	-6.778184	-6.778184	-3.985188	-3.985188	-4.760125	-4.760125	-4.623415	-4.623415	-87.637631	-87.637631	-101.707041	-101.707041
1.286743	1.181787	-4.306773	0.042092	0.000000	-4.768076	-4.768076	-3.127917	-3.127917	-0.129055	-0.129055	0.048024	0.048024	-42.350067	-42.350067	-44.917675	-44.917675
1.308189	4.153544	2.679456	0.005614	0.000000	-1.917427	-1.917427	-1.605075	-1.605075	4.627709	4.627709	4.561263	4.561263	13.289843	13.289843	13.781594	13.781594
1.329635	6.458038	9.501096	-0.029032	0.000000	1.355859	1.355859	0.242232	0.242232	8.708548	8.708548	8.593748	8.593748	68.905755	68.905755	79.647230	79.647230
1.351080	7.717036	15.150197	-0.056523	-0.000000	4.563326	4.563326	2.173301	2.173301	11.509557	11.509557	11.515415	11.515415	117.371001	117.371001	143.338000	143.338000
1.372526	7.709285	18.687013	-0.083524	-0.000000	7.329427	7.329427	3.787430	3.787430	12.680018	12.680018	12.692395	12.692395	154.613419	154.613419	189.082074	189.082074
1.393972	6.417001	19.411773	-0.109331	-0.000000	9.254360	9.254360	4.801825	4.801825	11.947646	11.947646	11.749291	11.749291	172.687141	172.687141	203.226054	203.226054
1.415417	4.040783	17.048458	-0.117474	-0.000000	9.867363	9.867363	5.245533	5.245533	9.131564	9.131564	8.728377	8.728377	159.670791	159.670791	179.430924	179.430924
1.436863	0.977031	11.846949	-0.095926	0.000000	8.715181	8.715181	4.838206	4.838206	4.674079	4.674079	4.447794	4.447794	116.663574	116.663574	133.583683	133.583683
1.458309	-2.241763	4.514741	-0.056536	0.000000	5.930305	5.930305	3.437771	3.437771	-0.569459	-0.569459	-0.481330	-0.481330	53.763699	53.763699	68.819780	68.819780
1.479755	-5.036421	-3.893664	-0.019848	0.000000	2.098337	2.098337	1.161980	1.161980	-5.662335	-5.662335	-5.575497	-5.575497	-17.947194	-17.947194	-18.512296	-18.512296
1.501200	-6.886120	-12.059655	0.012598	-0.000000	-2.232092	-2.232092	-1.601039	-1.601039	-9.854684	-9.854684	-9.980776	-9.980776	-91.238730	-91.238730	-116.011820	-116.011820
1.522646	-7.430278	-18.567252	0.053259	-0.000000	-6.596374	-6.596374	-4.260168	-4.260168	-12.569826	-12.569826	-12.676741	-12.676741	-159.375230	-159.375230	-198.512074	-198.512074
1.544092	-6.546872	-22.155755	0.100965	-0.000000	-10.353269	-10.353269	-6.216331	-6.216331	-13.232495	-13.232495	-13.090963	-13.090963	-208.231803	-208.231803	-248.707754	-248.707754
1.565538	-4.389260	-21.983315	0.137165	-0.000000	-12.628880	-12.628880	-7.166359	-7.166359	-11.492214	-11.492214	-11.106646	-11.106646	-222.007466	-222.007466	-256.235026	-256.235026
1.586983	-1.370033	-17.856437	0.140829	0.000000	-12.676684	-12.676684	-7.135983	-7.135983	-7.434565	-7.434565	-6.947342	-6.947342	-190.395846	-190.395846	-213.694513	-213.694513
1.608429	1.909668	-10.359867	0.104154	0.000000	-10.208402	-10.208402	-6.076897	-6.076897	-1.760378	-1.760378	-1.421770	-1.421770	-116.152339	-116.152339	-128.640309	-128.640309
1.629875	4.775439	-0.731722	0.045794	-0.000000	-5.557783	-5.557783	-3.444924	-3.444924	4.194166	4.194166	4.031547	4.031547	-19.940446	-19.940446	-30.405357	-30.405357
1.651320	6.618758	9.365093	-0.008361	-0.000000	0.213529	0.213529	-0.039514	-0.039514	9.274951	9.274951	9.188791	9.188791	81.271159	81.271159	95.752466	95.752466
1.672766	7.031604	18.055362	-0.056926	0.000000	6.145324	6.145324	3.638811	3.638811	12.636444	12.636444	12.764769	12.764769	173.675740	173.675740	216.664523	216.664523
1.694212	5.906143	23.558787	-0.112148	0.000000	11.377287	11.377287	6.630916	6.630916	13.771417	13.771417	13.785798	13.785798	244.820416	244.820416	299.259669	299.259669
1.715658	3.473742	24.580724	-0.165686	0.000000	14.904206	14.904206	8.193284	8.193284	12.288803	12.288803	11.954074	11.954074	275.254301	275.254301	323.194544	323.194544
1.737103	0.268991	20.678924	-0.184882	0.000000	15.655669	15.655669	8.525082	8.525082	8.085855	8.085855	7.291106	7.291106	245.045843	245.045843	268.751925	268.751925
1.758549	-2.979320	12.457432	-0.147375	0.000000	12.915714	12.915714	6.988270	6.988270	1.978444	1.978444	1.598651	1.598651	156.403652	156.403652	176.011898	176.011898
1.779995	-5.510527	1.402669	-0.077918	0.000000	7.181804	7.181804	3.686845	3.686845	-4.478984	-4.478984	-4.300685	-4.300685	34.078846	34.078846	48.275910	48.275910
1.801440	-6.712830	-10.391655	-0.012581	0.000000	-0.154436	-0.154436	-0.744332	-0.744332	-9.805186	-9.805186	-9.776043	-9.776043	-94.802518	-94.802518	-114.398173	-114.398173
1.822886	-6.279417	-20.506930	0.051067	-0.000000	-7.739938	-7.739938	-5.439460	-5.439460	-13.146171	-13.146171	-13.329542	-13.329542	-213.005218	-213.005218	-266.750252	-266.750252
1.844332	-4.298720	-26.688815	0.124497	-0.000000	-14.325814	-14.325814	-9.110958	-9.110958	-13.933354	-13.933354	-13.893545	-13.893545	-300.050574	-300.050574	-364.615596	-364.615596
1.865778	-1.250381	-27.380309	0.191423	-0.000000	-18.459977	-18.459977	-10.795822	-10.795822	-11.803332	-11.803332	-11.318697	-11.318697	-329.584131	-329.584131	-383.780727	-383.780727
1.887223	2.099752	-22.179933	0.212072	0.000000	-18.758841	-18.758841	-10.627279	-10.627279	-6.854931	-6.854931	-5.886178	-5.886178	-280.706464	-280.706464	-305.699211	-305.699211
1.908669	4.886123	-12.061723	0.161380	0.000000	-14.594020	-14.594020	-8.134770	-8.134770	-0.102606	-0.102606	0.353412	0.353412	-157.502426	-157.502426	-174.378704	-174.378704
1.930115	6.368104	0.887257	0.070064	0.000000	-6.773807	-6.773807	-3.601330	-3.601330	6.493939	6.493939	6.314667	6.314667	1.992797	1.992797	-4.304004	-4.304004
1.951560	6.134758	13.909347	-0.017367	-0.000000	2.641211	2.641211	1.999418	1.999418	11.314679	11.314679	11.252735	11.252735	160.033256	160.033256	192.726274	192.726274
1.973006	4.231635	24.048844	-0.099518	-0.000000	11.663197	11.663197	7.387065	7.387065	13.574062	13.574062	13.676261	13.676261	290.473891	290.473891	358.182357	358.182357
1.994452	1.167987	28.836336	-0.183213	-0.000000	18.537009	18.537009	10.971085	10.971085	12.928357	12.928357	12.735366	12.735366	366.692081	366.692081	440.107644	440.107644
2.015898	-2.206907	26.946187	-0.243703	-0.000000	21.520754	21.520754	11.976759	11.976759	9.345004	9.345004	8.470140	8.470140	361.137614	361.137614	407.640088	407.640088
2.037343	-4.932545	18.689248	-0.232105	-0.000000	19.386534	19.386534	10.433826	10.433826	3.222547	3.222547	2.215505	2.215505	255.976971	255.976971	273.635021	273.635021
2.058789	-6.211974	5.923766	-0.147762	-0.000000	12.052329	12.052329	5.839730	5.839730	-3.530339	-3.530339	-3.635549	-3.635549	85.552718	85.552718	100.119389	100.119389
2.080235	-5.654101	-8.421515	-0.041587	-0.000000	1.640137	1.640137	-0.274095	-0.274095	-9.037833	-9.037833	-8.922569	-8.922569	-103.882754	-103.882754	-122.298091	-122.298091
2.101680	-3.407845	-20.929397	0.059700	0.000000	-9.240418	-9.240418	-6.729147	-6.729147	-12.090962	-12.090962	-12.117613	-12.117613	-269.687985	-269.687985	-329.914987	-329.914987
2.123126	-0.138983	-28.487162	0.158667	0.000000	-18.250145	-18.250145	-11.622701	-11.622701	-12.229611	-12.229611	-12.168701	-12.168701	-376.890998	-376.890998	-457.277046	-457.277046
2.144572	3.154623	-29.194852	0.282931	0.000000	-23.649371	-23.649371	-12.323116	-12.323116	-8.409183	-8.409183	-9.529966	-9.529966	-360.962371	-360.962371	-482.806336	-482.806336
2.166018	5.442704	-22.910122	0.343859	-0.000000	-22.696036	-22.696036	-11.903468	-11.903468	-6.665505	-6.665505	-2.417935	-2.417935	-378.082123	-378.082123	-301.032106	-301.032106
2.187463	5.989329	-11.130514	0.229437	-0.000000	-16.906570	-16.906570	-7.672039	-7.672039	1.590939	1.590939	2.200924	2.200924	-139.439780	-139.439780	-145.202443	-145.202443
2.208909	4.602335	3.165535	0.017198	0.000000	-4.418468	-4.418468	-2.202087	-2.202087	7.477196	7.477196	5.906189	5.906189	88.083064	88.083064	47.980959	47.980959
2.230355	1.717669	16.324544	-0.098243	0.000000	7.838095	7.838095	4.451497	4.451497	10.035325	10.035325	9.216782	9.216782	258.549905	258.549905	283.661737	283.661737
2.251801	-1.721157	24.977621	-0.145641	-0.000000	16.982853	16.982853	10.403415	10.403415	9.800131	9.800131	10.276734	10.276734	358.944194	358.944194	455.644891	455.644891
2.273246	-4.561768	26.866452	-0.207669	0.000000	21.919155	21.919155	13.009635	13.009635	7.865741	7.865741	8.000358	8.000358	387.633212	387.633212	478.414906	478.414906
2.294692	-5.829234	21.634870	-0.254988	0.000000	21.655607	21.655607	12.167221	12.167221	4.219868	4.219868	2.746510	2.746510	314.184727	314.184727	327.485963	327.485963
2.316138	-5.071079	10.949479	-0.210701	0.000000	15.284953	15.284953	7.172359	7.172359	-0.467272	-0.467272	-1.420018	-1.420018	144.841060	144.841060	140.122403	140.122403
2.337583	-2.536113	-2.106570	-0.084142	-0.000000	4.424286	4.424286	0.829636	0.829636	-4.702927	-4.702927	-4.735742	-4.735742	-66.326393	-66.326393	-82.451742	-82.451742
2.359029	0.888224	-13.938333	0.052927	-0.000000	-7.375227	-7.375227	-5.568733	-5.568733	-6.989001	-6.989001	-6.561495	-6.561495	-244.772174	-244.772174	-282.379357	-282.379357
2.380475	3.973295	-21.379207	0.157323	0.000000	-16.472220	-16.472220	-10.244251	-10.244251	-7.075692	-7.075692	-6.623126	-6.623126	-344.148038	-344.148038	-402.564388	-402.564388
2.401921	5.587290	-22.604241	0.217905	-0.000000	-20.502558	-20.502558	-11.795953	-11.795953	-5.459526	-5.459526	-4.876570	-4.876570	-344.530145	-344.530145	-398.281235	-398.281235
2.423366	5.119407	-17.711698	0.213542	-0.000000	-18.612528	-18.612528	-10.548329	-10.548329	-2.621804	-2.621804	-1.501643	-1.501643	-241.937415	-241.937415	-252.443130	-252.443130
2.444812	2.728689	-8.604831	0.136183	0.000000	-11.310694	-11.310694	-5.763436	-5.763436	0.326549	0.326549	0.624169	0.624169	-75.653515	-75.653515	-80.683289	-80.683289
2.466258	-0.689235	1.771996	0.024301	-0.000000	-1.308667	-1.308667	-0.086205	-0.086205	2.478167	2.478167	2.317167	2.317167	98.084592	98.084592	113.612990	113.612990
2.487703	-3.822580	10.371447	-0.077712	-0.000000	8.043219	8.043219	5.024467	5.024467	3.356437	3.356437	3.092540	3.092540	223.310728	223.310728	262.370646	262.370646
