ChassisSim Rig Replay Log
R LS Bump 13K N/m/s, bypass 35mm
Heave
Time (s)	heave inp (mm)	heave (mm)	pitch (deg)	roll (deg)	Damp FL (mm)	Damp FR (mm)	Damp RL (mm)	Damp RR (mm)	Hub disp FL (mm)	Hub disp FR (mm)	Hub disp RL (mm)	Hub disp RR (mm)	Delta TL FL (kg)	Delta TL FR (kg)	Delta TL RL (kg)	Delta TL RR (kg)
0.020000	-1.746383	-0.076922	-0.002895	0.000000	0.671747	0.671747	0.360974	0.360974	-0.771565	-0.771565	-0.550706	-0.550706	31.087550	31.087550	46.073125	46.073125
0.040000	-3.713430	-0.678692	-0.017354	0.000000	1.893167	1.893167	1.032600	1.032600	-2.348363	-2.348363	-2.202726	-2.202726	43.198586	43.198586	58.503080	58.503080
0.060000	-5.614855	-2.052168	-0.036303	0.000000	2.637076	2.637076	1.381862	1.381862	-4.049291	-4.049291	-4.359288	-4.359288	49.660855	49.660855	48.946100	48.946100
0.080000	-7.411607	-4.182128	-0.038097	0.000000	2.742418	2.742418	1.349240	1.349240	-6.235537	-6.235537	-6.484325	-6.484325	37.713103	37.713103	36.362179	36.362179
0.100000	-9.062720	-6.905284	-0.022757	-0.000000	2.015939	2.015939	0.981931	0.981931	-8.537216	-8.537216	-8.470701	-8.470701	17.445906	17.445906	23.674702	23.674702
0.120000	-10.526355	-9.961854	-0.007147	0.000000	0.851670	0.851670	0.407096	0.407096	-10.700718	-10.700718	-10.553124	-10.553124	-4.449909	-4.449909	0.203478	0.203478
0.140000	-11.761057	-13.023038	0.001636	0.000000	-0.418980	-0.418980	-0.383791	-0.383791	-12.577756	-12.577756	-12.547077	-12.547077	-24.587479	-24.587479	-28.739308	-28.739308
0.160000	-12.727217	-15.730788	0.009488	0.000000	-1.640775	-1.640775	-1.194866	-1.194866	-14.133057	-14.133057	-14.188849	-14.188849	-43.091168	-43.091168	-54.666836	-54.666836
0.180000	-13.388693	-17.761484	0.021768	0.000000	-2.727876	-2.727876	-1.818095	-1.818095	-15.277654	-15.277654	-15.271302	-15.271302	-58.358529	-58.358529	-71.004843	-71.004843
0.200000	-13.714571	-18.881291	0.035298	0.000000	-3.531478	-3.531478	-2.150911	-2.150911	-15.861903	-15.861903	-15.739647	-15.739647	-66.702624	-66.702624	-76.768800	-76.768800
0.220000	-13.680993	-18.980394	0.042959	0.000000	-3.880069	-3.880069	-2.207162	-2.207162	-15.781327	-15.781327	-15.617802	-15.617802	-65.567340	-65.567340	-73.768516	-73.768516
0.240000	-13.272985	-18.084730	0.041032	0.000000	-3.720622	-3.720622	-2.098135	-2.098135	-15.021016	-15.021016	-14.886884	-14.886884	-54.922260	-54.922260	-61.848542	-61.848542
0.260000	-12.486192	-16.343991	0.031813	0.000000	-3.138508	-3.138508	-1.829340	-1.829340	-13.694644	-13.694644	-13.643115	-13.643115	-38.348856	-38.348856	-44.772304	-44.772304
0.280000	-11.328425	-13.988159	0.020316	0.000000	-2.291210	-2.291210	-1.429745	-1.429745	-11.985009	-11.985009	-11.976988	-11.976988	-21.327609	-21.327609	-25.693429	-25.693429
0.300000	-9.820894	-11.268330	0.009904	0.000000	-1.387991	-1.387991	-0.964076	-0.964076	-9.998430	-9.998430	-9.995949	-9.995949	-6.530325	-6.530325	-7.865009	-7.865009
0.320000	-7.999018	-8.410715	0.001408	0.000000	-0.581728	-0.581728	-0.512161	-0.512161	-7.813851	-7.813851	-7.819820	-7.819820	4.682015	4.682015	5.499534	5.499534
0.340000	-5.912686	-5.584969	-0.004779	0.000000	0.032013	0.032013	-0.145008	-0.145008	-5.505854	-5.505854	-5.531388	-5.531388	11.540039	11.540039	13.122757	13.122757
0.360000	-3.625858	-2.889891	-0.007938	0.000000	0.405819	0.405819	0.100250	0.100250	-3.140009	-3.140009	-3.173669	-3.173669	13.984679	13.984679	15.784307	15.784307
0.380000	-1.215412	-0.358176	-0.008045	0.000000	0.546662	0.546662	0.224545	0.224545	-0.758408	-0.758408	-0.780442	-0.780442	13.086743	13.086743	15.122117	15.122117
0.400000	1.230830	2.024126	-0.006235	0.000000	0.513278	0.513278	0.254921	0.254921	1.616463	1.616463	1.607955	1.607955	10.871292	10.871292	12.935769	12.935769
0.420000	3.616936	4.289367	-0.004162	0.000000	0.406846	0.406846	0.220883	0.220883	3.946313	3.946313	3.955877	3.955877	9.158687	9.158687	11.521919	11.521919
0.440000	5.842523	6.462513	-0.003207	0.000000	0.341394	0.341394	0.197904	0.197904	6.166072	6.166072	6.173952	6.173952	9.043576	9.043576	11.338951	11.338951
0.460000	7.807180	8.541806	-0.003921	0.000000	0.386539	0.386539	0.221550	0.221550	8.211486	8.211486	8.210865	8.210865	11.657982	11.657982	14.202419	14.202419
0.480000	9.415514	10.482149	-0.006251	0.000000	0.580611	0.580611	0.315152	0.315152	9.993823	9.993823	9.996479	9.996479	17.224069	17.224069	21.109310	21.109310
0.500000	10.582600	12.188194	-0.010432	0.000000	0.937828	0.937828	0.496659	0.496659	11.408769	11.408769	11.410899	11.410899	25.136460	25.136460	30.747309	30.747309
0.520000	11.239566	13.525291	-0.016380	0.000000	1.428485	1.428485	0.751346	0.751346	12.353180	12.353180	12.338075	12.338075	34.332414	34.332414	41.315443	41.315443
0.540000	11.338980	14.340621	-0.023020	0.000000	1.984143	1.984143	1.044893	1.044893	12.723019	12.723019	12.686357	12.686357	43.044951	43.044951	51.119389	51.119389
0.560000	10.859643	14.488587	-0.028846	0.000000	2.509454	2.509454	1.333773	1.333773	12.439866	12.439866	12.390523	12.390523	49.475226	49.475226	58.473023	58.473023
0.580000	9.810376	13.856692	-0.032735	0.000000	2.907542	2.907542	1.570075	1.570075	11.469572	11.469572	11.415153	11.415153	52.262862	52.262862	61.676152	61.676152
0.600000	8.232392	12.388204	-0.034028	0.000000	3.098864	3.098864	1.707376	1.707376	9.826285	9.826285	9.768967	9.768967	50.542371	50.542371	59.465246	59.465246
0.620000	6.199859	10.097176	-0.032292	0.000000	3.020251	3.020251	1.698321	1.698321	7.582984	7.582984	7.528199	7.528199	44.239844	44.239844	51.863205	51.863205
0.640000	3.818348	7.066422	-0.028210	0.000000	2.645213	2.645213	1.459944	1.459944	4.867965	4.867965	4.852192	4.852192	34.062063	34.062063	40.936949	40.936949
0.660000	1.220945	3.445703	-0.022863	-0.000000	2.012306	2.012306	1.056582	1.056582	1.816210	1.816210	1.796047	1.796047	20.039892	20.039892	23.690383	23.690383
0.680000	-1.438009	-0.548102	-0.016048	-0.000000	1.149504	1.149504	0.496542	0.496542	-1.391933	-1.391933	-1.428756	-1.428756	2.981303	2.981303	2.246014	2.246014
0.700000	-3.991449	-4.640989	-0.006536	-0.000000	0.100980	0.100980	-0.157671	-0.157671	-4.563676	-4.563676	-4.592030	-4.592030	-16.330929	-16.330929	-21.006553	-21.006553
0.720000	-6.270031	-8.526433	0.005482	-0.000000	-1.059320	-1.059320	-0.839601	-0.839601	-7.470434	-7.470434	-7.465089	-7.465089	-36.064123	-36.064123	-43.803676	-43.803676
0.740000	-8.113961	-11.893788	0.018163	0.000000	-2.218507	-2.218507	-1.490037	-1.490037	-9.879734	-9.879734	-9.841969	-9.841969	-53.949418	-53.949418	-64.379821	-64.379821
0.760000	-9.385435	-14.457758	0.029514	-0.000000	-3.253082	-3.253082	-2.055337	-2.055337	-11.591705	-11.591705	-11.539224	-11.539224	-68.032171	-68.032171	-80.987821	-80.987821
0.780000	-9.980753	-15.985603	0.038493	0.000000	-4.058794	-4.058794	-2.481612	-2.481612	-12.461949	-12.461949	-12.406054	-12.406054	-77.017014	-77.017014	-91.815055	-91.815055
0.800000	-9.841046	-16.320194	0.044759	0.000000	-4.560960	-4.560960	-2.720297	-2.720297	-12.406957	-12.406957	-12.346333	-12.346333	-80.107586	-80.107586	-95.408399	-95.408399
0.820000	-8.960496	-15.397302	0.047836	0.000000	-4.708981	-4.708981	-2.747925	-2.747925	-11.406004	-11.406004	-11.331033	-11.331033	-76.810650	-76.810650	-90.856706	-90.856706
0.840000	-7.391004	-13.261630	0.046227	-0.000000	-4.493699	-4.493699	-2.620357	-2.620357	-9.474267	-9.474267	-9.374317	-9.374317	-65.964946	-65.964946	-76.657151	-76.657151
0.860000	-5.242403	-10.071345	0.038805	0.000000	-3.898142	-3.898142	-2.315276	-2.315276	-6.760044	-6.760044	-6.683685	-6.683685	-48.682985	-48.682985	-56.445762	-56.445762
0.880000	-2.677624	-6.079256	0.026728	0.000000	-2.959472	-2.959472	-1.844561	-1.844561	-3.503251	-3.503251	-3.473480	-3.473480	-27.340806	-27.340806	-32.186497	-32.186497
0.900000	0.097399	-1.600922	0.012318	0.000000	-1.754127	-1.754127	-1.236608	-1.236608	0.005714	0.005714	0.021623	0.021623	-4.559241	-4.559241	-4.941028	-4.941028
0.920000	2.848783	3.009280	-0.003056	0.000000	-0.407582	-0.407582	-0.527193	-0.527193	3.516649	3.516649	3.516251	3.516251	19.145414	19.145414	23.359281	23.359281
0.940000	5.333874	7.379806	-0.018506	0.000000	0.989873	0.989873	0.236605	0.236605	6.734934	6.734934	6.710138	6.710138	42.174930	42.174930	50.521652	50.521652
0.960000	7.323168	11.146024	-0.032689	-0.000000	2.338221	2.338221	1.002012	1.002012	9.372490	9.372490	9.325841	9.325841	62.691519	62.691519	74.709525	74.709525
0.980000	8.623081	13.977224	-0.044293	-0.000000	3.532050	3.532050	1.714784	1.714784	11.181757	11.181757	11.120689	11.120689	78.990385	78.990385	94.034774	94.034774
1.000000	9.097314	15.603520	-0.052445	-0.000000	4.479470	4.479470	2.318045	2.318045	11.971628	11.971628	11.906589	11.906589	89.341269	89.341269	106.493512	106.493512
1.020000	8.684411	15.844132	-0.056975	-0.000000	5.111959	5.111959	2.752756	2.752756	11.633451	11.633451	11.571925	11.571925	92.207111	92.207111	110.129033	110.129033
1.040000	7.409135	14.630978	-0.057686	-0.000000	5.343233	5.343233	2.965139	2.965139	10.189471	10.189471	10.112258	10.112258	87.472597	87.472597	103.762908	103.762908
1.060000	5.385720	12.019413	-0.053783	-0.000000	5.094041	5.094041	2.874683	2.874683	7.762831	7.762831	7.691066	7.691066	75.342388	75.342388	89.128442	89.128442
1.080000	2.811672	8.178288	-0.046313	-0.000000	4.350714	4.350714	2.394988	2.394988	4.562158	4.562158	4.546452	4.546452	56.160805	56.160805	67.899015	67.899015
1.100000	-0.048248	3.392700	-0.036866	-0.000000	3.157060	3.157060	1.621819	1.621819	0.865669	0.865669	0.825736	0.825736	30.281832	30.281832	35.445570	35.445570
1.120000	-2.887101	-1.929462	-0.024327	0.000000	1.549005	1.549005	0.571801	0.571801	-2.988130	-2.988130	-3.059988	-3.059988	-1.311158	-1.311158	-4.316958	-4.316958
1.140000	-5.387947	-7.277893	-0.006567	-0.000000	-0.400567	-0.400567	-0.643831	-0.643831	-6.625917	-6.625917	-6.679438	-6.679438	-36.895804	-36.895804	-47.056971	-47.056971
1.160000	-7.260000	-12.085213	0.015568	-0.000000	-2.538051	-2.538051	-1.897535	-1.897535	-9.630844	-9.630844	-9.625040	-9.625040	-72.553439	-72.553439	-88.307568	-88.307568
1.180000	-8.274740	-15.786500	0.038416	0.000000	-4.618503	-4.618503	-3.057542	-3.057542	-11.616424	-11.616424	-11.555954	-11.555954	-103.334619	-103.334619	-123.763012	-123.763012
1.200000	-8.297413	-17.887453	0.058161	0.000000	-6.360225	-6.360225	-3.984219	-3.984219	-12.302438	-12.302438	-12.214151	-12.214151	-124.646935	-124.646935	-148.687858	-148.687858
1.220000	-7.309405	-18.033662	0.072420	-0.000000	-7.503866	-7.503866	-4.531813	-4.531813	-11.560133	-11.560133	-11.457580	-11.457580	-132.985368	-132.985368	-158.315844	-158.315844
1.240000	-5.417578	-16.073392	0.079497	-0.000000	-7.842864	-7.842864	-4.594990	-4.594990	-9.422218	-9.422218	-9.285234	-9.285234	-125.971126	-125.971126	-148.494031	-148.494031
1.260000	-2.847982	-12.119621	0.075586	0.000000	-7.290532	-7.290532	-4.268517	-4.268517	-5.996794	-5.996794	-5.784710	-5.784710	-99.896739	-99.896739	-113.798643	-113.798643
1.280000	0.076838	-6.574559	0.056396	0.000000	-5.692243	-5.692243	-3.481898	-3.481898	-1.749248	-1.749248	-1.528815	-1.528815	-58.982079	-58.982079	-63.530219	-63.530219
1.300000	2.975449	-0.069433	0.024260	0.000000	-3.185874	-3.185874	-2.131660	-2.131660	2.791588	2.791588	2.785066	2.785066	-7.882299	-7.882299	-9.700685	-9.700685
1.320000	5.456281	6.631353	-0.009547	0.000000	-0.153334	-0.153334	-0.427449	-0.427449	6.993812	6.993812	6.871858	6.871858	46.009202	46.009202	51.466525	51.466525
1.340000	7.171618	12.692317	-0.037378	0.000000	2.991153	2.991153	1.446895	1.446895	10.283820	10.283820	10.259135	10.259135	95.547818	95.547818	115.528809	115.528809
1.360000	7.869462	17.282774	-0.063362	0.000000	5.910543	5.910543	3.206365	3.206365	12.310660	12.310660	12.349078	12.349078	137.586472	137.586472	169.275549	169.275549
1.380000	7.435333	19.694533	-0.090992	0.000000	8.305700	8.305700	4.507279	4.507279	12.789784	12.789784	12.740144	12.740144	166.809514	166.809514	201.656465	201.656465
1.400000	5.916710	19.469324	-0.112678	0.000000	9.774721	9.774721	5.277658	5.277658	11.514643	11.514643	11.207736	11.207736	175.264283	175.264283	202.265964	202.265964
1.420000	3.524660	16.517697	-0.114116	0.000000	9.974953	9.974953	5.456197	5.456197	8.402883	8.402883	8.040457	8.040457	153.679673	153.679673	173.588715	173.588715
1.440000	0.610260	11.135610	-0.094194	0.000000	8.576722	8.576722	4.608964	4.608964	4.085212	4.085212	4.039958	4.039958	110.410003	110.410003	132.785649	132.785649
1.460000	-2.382798	3.945438	-0.066867	0.000000	5.883470	5.883470	2.991548	2.991548	-0.802119	-0.802119	-0.760939	-0.760939	51.571517	51.571517	64.507458	64.507458
1.480000	-4.983900	-4.148408	-0.039447	-0.000000	2.273204	2.273204	0.665790	0.665790	-5.582469	-5.582469	-5.679406	-5.679406	-16.437736	-16.437736	-23.635845	-23.635845
1.500000	-6.770324	-12.018183	-0.005142	-0.000000	-1.907481	-1.907481	-2.000858	-2.000858	-9.689787	-9.689787	-9.857298	-9.857298	-89.130341	-89.130341	-115.087102	-115.087102
1.520000	-7.439392	-18.471493	0.039970	0.000000	-6.225208	-6.225208	-4.529912	-4.529912	-12.517971	-12.517971	-12.550624	-12.550624	-157.084656	-157.084656	-192.954008	-192.954008
1.540000	-6.865363	-22.436836	0.087524	0.000000	-10.024669	-10.024669	-6.500554	-6.500554	-13.510238	-13.510238	-13.330930	-13.330930	-206.814922	-206.814922	-245.550482	-245.550482
1.560000	-5.129803	-23.149154	0.123381	0.000000	-12.555108	-12.555108	-7.605327	-7.605327	-12.368629	-12.368629	-12.072814	-12.072814	-226.338021	-226.338021	-264.859581	-264.859581
1.580000	-2.517706	-20.302349	0.137861	-0.000000	-13.221986	-13.221986	-7.678576	-7.678576	-9.191761	-9.191761	-8.853903	-8.853903	-209.679773	-209.679773	-242.985612	-242.985612
1.600000	0.522925	-14.177302	0.124393	0.000000	-11.821645	-11.821645	-6.924986	-6.924986	-4.311779	-4.311779	-3.869492	-3.869492	-153.055306	-153.055306	-169.894953	-169.894953
1.620000	3.453776	-5.623108	0.084419	0.000000	-8.240476	-8.240476	-4.743460	-4.743460	1.266655	1.266655	1.389871	1.389871	-70.804988	-70.804988	-81.463328	-81.463328
1.640000	5.740439	4.091012	0.031672	0.000000	-3.160650	-3.160650	-1.736426	-1.736426	6.684595	6.684595	6.633849	6.633849	26.974128	26.974128	30.975980	30.975980
1.660000	6.952118	13.449876	-0.020931	-0.000000	2.624009	2.624009	1.755071	1.755071	10.975147	10.975147	10.994420	10.994420	123.497735	123.497735	151.301858	151.301858
1.680000	6.848112	20.871423	-0.074637	-0.000000	8.262715	8.262715	5.094749	5.094749	13.533506	13.533506	13.575670	13.575670	207.308945	207.308945	254.493868	254.493868
1.700000	5.433049	24.985179	-0.129270	-0.000000	12.921517	12.921517	7.584422	7.584422	13.911958	13.911958	13.785056	13.785056	264.251659	264.251659	317.625248	317.625248
1.720000	2.967340	24.899061	-0.172941	-0.000000	15.704643	15.704643	8.752896	8.752896	11.906034	11.906034	11.496618	11.496618	279.715141	279.715141	325.868386	325.868386
1.740000	-0.072923	20.443880	-0.182704	-0.000000	15.883477	15.883477	8.744098	8.744098	7.554426	7.554426	6.872870	6.872870	239.932187	239.932187	266.634668	266.634668
1.760000	-3.082484	12.229411	-0.152490	-0.000000	13.005588	13.005588	6.712939	6.712939	1.806775	1.806775	1.584812	1.584812	155.097960	155.097960	180.519822	180.519822
1.780000	-5.445529	1.538434	-0.099398	-0.000000	7.610585	7.610585	3.396466	3.396466	-4.230687	-4.230687	-4.274448	-4.274448	40.607974	40.607974	47.860853	47.860853
1.800000	-6.663849	-9.853187	-0.038912	0.000000	0.657137	0.657137	-0.931290	-0.931290	-9.446567	-9.446567	-9.564060	-9.564060	-84.403883	-84.403883	-107.345266	-107.345266
1.820000	-6.467758	-19.905989	0.030083	0.000000	-6.771739	-6.771739	-5.428968	-5.428968	-13.035386	-13.035386	-13.162251	-13.162251	-203.149019	-203.149019	-252.657645	-252.657645
1.840000	-4.884213	-26.693740	0.105868	-0.000000	-13.488934	-13.488934	-9.137583	-9.137583	-14.347987	-14.347987	-14.244125	-14.244125	-294.499930	-294.499930	-355.440566	-355.440566
1.860000	-2.243752	-28.787097	0.172741	-0.000000	-18.176685	-18.176685	-11.260566	-11.260566	-13.012722	-13.012722	-12.593325	-12.593325	-336.421272	-336.421272	-394.567551	-394.567551
1.880000	0.879996	-25.576616	0.208143	0.000000	-19.658455	-19.658455	-11.434090	-11.434090	-9.136676	-9.136676	-8.469204	-8.469204	-314.149036	-314.149036	-358.040216	-358.040216
1.900000	3.789535	-17.498469	0.191843	0.000000	-17.381871	-17.381871	-9.877912	-9.877912	-3.233341	-3.233341	-2.507821	-2.507821	-221.639477	-221.639477	-242.492664	-242.492664
1.920000	5.818222	-5.957759	0.129205	-0.000000	-11.366337	-11.366337	-6.002464	-6.002464	3.192640	3.192640	3.372938	3.372938	-84.770013	-84.770013	-96.329032	-96.329032
1.940000	6.486746	6.932840	0.045867	-0.000000	-2.962214	-2.962214	-0.966646	-0.966646	8.877595	8.877595	8.884731	8.884731	72.031054	72.031054	88.137737	88.137737
1.960000	5.624146	18.704261	-0.041019	0.000000	6.224635	6.224635	4.511319	4.511319	12.695327	12.695327	12.730676	12.730676	218.755246	218.755246	268.148057	268.148057
1.980000	3.421447	26.970314	-0.128458	0.000000	14.508150	14.508150	9.180220	9.180220	14.054019	14.054019	13.979897	13.979897	330.875980	330.875980	400.889605	400.889605
2.000000	0.399857	29.938542	-0.206817	-0.000000	20.289965	20.289965	11.914460	11.914460	12.685808	12.685808	12.289750	12.289750	383.654009	383.654009	453.114060	453.114060
2.020000	-2.704699	26.847530	-0.249908	-0.000000	22.163449	22.163449	12.428642	12.428642	8.705284	8.705284	7.747811	7.747811	357.636399	357.636399	400.153915	400.153915
2.040000	-5.117470	18.214663	-0.233353	-0.000000	19.413204	19.413204	10.104032	10.104032	2.784012	2.784012	2.105538	2.105538	248.956616	248.956616	277.543597	277.543597
2.060000	-6.220361	5.718742	-0.163711	0.000000	12.261421	12.261421	5.497228	5.497228	-3.508399	-3.508399	-3.766215	-3.766215	87.331475	87.331475	96.571566	96.571566
2.080000	-5.717518	-8.141924	-0.069430	0.000000	2.379799	2.379799	-0.532421	-0.532421	-8.803101	-8.803101	-8.912142	-8.912142	-93.866882	-93.866882	-118.662865	-118.662865
2.100000	-3.725271	-20.480180	0.034535	-0.000000	-8.192769	-8.192769	-6.764536	-6.764536	-12.095969	-12.095969	-12.131270	-12.131270	-259.476141	-259.476141	-317.901042	-317.901042
2.120000	-0.757137	-28.638962	0.138986	0.000000	-17.385778	-17.385778	-11.704483	-11.704483	-12.778499	-12.778499	-12.622323	-12.622323	-374.692537	-374.692537	-450.935509	-450.935509
2.140000	2.399200	-30.862782	0.274190	0.000000	-23.649402	-23.649402	-12.323123	-12.323123	-9.175046	-9.175046	-11.158073	-11.158073	-362.071083	-362.071083	-515.587477	-515.587477
2.160000	4.886469	-26.831451	0.375703	-0.000000	-23.649402	-23.649402	-12.323123	-12.323123	-7.294981	-7.294981	-4.504270	-4.504270	-379.496290	-379.496290	-361.001789	-361.001789
2.180000	6.012391	-17.265199	0.328584	-0.000000	-20.222668	-20.222668	-9.628966	-9.628966	-3.394972	-3.394972	0.317545	0.317545	-297.596533	-297.596533	-218.152929	-218.152929
2.200000	5.450028	-4.223286	0.112258	0.000000	-11.421719	-11.421719	-5.126379	-5.126379	5.334291	5.334291	3.765974	3.765974	-6.355980	-6.355980	-65.903404	-65.903404
2.220000	3.344243	9.455403	-0.061617	0.000000	1.553209	1.553209	0.693641	0.693641	9.119546	9.119546	7.267028	7.267028	178.548702	178.548702	146.765643	146.765643
2.240000	0.287236	20.712520	-0.117119	-0.000000	12.076050	12.076050	7.246152	7.246152	10.175661	10.175661	10.070159	10.070159	307.774742	307.774742	370.316436	370.316436
2.260000	-2.838201	27.027686	-0.149589	-0.000000	19.322584	19.322584	12.243613	12.243613	9.341837	9.341837	10.194302	10.194302	379.737184	379.737184	495.553234	495.553234
2.280000	-5.109546	26.989215	-0.218191	0.000000	22.762521	22.762521	13.711325	13.711325	7.332701	7.332701	7.127837	7.127837	388.527051	388.527051	467.327842	467.327842
2.300000	-5.839876	20.773162	-0.266342	0.000000	21.549663	21.549663	11.549449	11.549449	3.801945	3.801945	2.367554	2.367554	302.055774	302.055774	314.068473	314.068473
2.320000	-4.795006	10.047790	-0.224799	0.000000	14.921600	14.921600	6.346331	6.346331	-0.549711	-0.549711	-1.669360	-1.669360	134.297221	134.297221	120.867384	120.867384
